# angle e_tot/Hartree e_kin/Hartree e_band/Hartree
0 -248.760782013565 -0.01409201067198751
5 -248.760729507012 -0.01403950411898336
10 -248.760583089544 -0.013893086650995201
20 -248.76003826737698 -0.013348264483965977
30 -248.759172369101 -0.01248236620799048
40 -248.757982647071 -0.011292644177984812
50 -248.756454256665 -0.009764253771976428
60 -248.754565992646 -0.007875989752989199
70 -248.752302504999 -0.005612502105975636
80 -248.74967056483302 -0.0029805619400065098
90 -248.74669000289302  0.0
100 -248.743375422091 0.003314580802026512 
110 -248.739729961802 0.006960041091019775
120 -248.735743395858 0.010946607035009492
150 -248.725190833659 0.021499169234004967
160 -248.722537693208 0.024152309685007367
170 -248.720481704159 0.02620829873401931
180 -248.71968347646 0.027006526433012823
